#1
double upperStorageTemp(35040,2) # profile of quarree100 upper storage temperature as simulated by TRNSYS, step size is 15min
1	63.66932226
2	63.66754234
3	63.67309932
4	63.67722967
5	63.68009554
6	63.68208834
7	63.68343278
8	63.68411884
9	63.6845032
10	63.68429226
11	63.6829845
12	63.6803198
13	63.6756068
14	63.66778491
15	63.65312348
16	63.63533146
17	63.61101486
18	63.58180302
19	63.55143028
20	63.52182463
21	63.49261896
22	63.46324368
23	63.43258752
24	63.39846802
25	63.36040313
26	63.31986907
27	63.28050073
28	63.24281248
29	63.20799155
30	63.17629988
31	63.14735383
32	63.12024811
33	63.09527975
34	63.0738446
35	63.05808571
36	63.0510901
37	63.05674003
38	63.07850616
39	63.13044434
40	63.18837822
41	63.26191271
42	63.34687414
43	63.44005839
44	63.53879817
45	63.63977485
46	63.74073132
47	63.83903079
48	63.9315196
49	64.01848777
50	64.10297267
51	64.19011274
52	64.27047383
53	64.34624828
54	64.41075984
55	64.46622886
56	64.51622345
57	64.56075555
58	64.59849853
59	64.62960183
60	64.65506792
61	64.67651219
62	64.69436482
63	64.70778216
64	64.71711101
65	64.7226373
66	64.72505354
67	61.92642172
68	62.07289971
69	62.21088911
70	62.34122564
71	62.58359759
72	62.80068798
73	59.95183321
74	60.28859199
75	60.60039682
76	60.88630406
77	61.15396298
78	61.40184269
79	61.63213976
80	61.84989657
81	62.05812496
82	62.25709192
83	62.44525331
84	62.62292294
85	62.79104129
86	62.94988563
87	63.09937319
88	63.23793753
89	63.37012997
90	63.49394153
91	63.60952638
92	63.71729031
93	63.81746967
94	63.91030918
95	64.04019788
96	64.15643554
97	64.2600148
98	64.35190964
99	64.4330073
100	64.50090731
101	64.56488481
102	64.61979481
103	64.68156837
104	64.72361888
105	61.8154115
106	60.09924659
107	59.26639862
108	58.69666932
109	58.23428734
110	57.90015786
111	57.60186379
112	56.85860837
113	56.76603614
114	56.68094593
115	56.60263535
116	57.57877278
117	58.43825654
118	59.19839426
119	59.87396129
120	60.47771309
121	61.02014122
122	61.50898671
123	61.95011749
124	62.33133523
125	62.69338907
126	63.02259765
127	63.32351401
128	63.59917271
129	63.85182148
130	64.08353373
131	64.3000402
132	64.5066531
133	64.69932152
134	64.87711901
135	65.03982541
136	65.17627776
137	65.30806809
138	65.42482829
139	65.52806769
140	65.62076987
141	65.70483976
142	65.78122738
143	65.85018354
144	65.91220783
145	65.96680674
146	66.01577819
147	66.05835686
148	66.08996171
149	66.10821906
150	66.11370954
151	66.11058556
152	66.10190247
153	66.08855827
154	66.06952888
155	66.04252231
156	66.00752006
157	65.96481296
158	65.91093269
159	65.84821271
160	65.78165536
161	65.70978547
162	65.63259461
163	65.54924239
164	65.45729804
165	65.35593389
166	65.24671628
167	65.13393221
168	65.02330329
169	64.91732051
170	64.814896
171	64.71159571
172	64.602689
173	64.48786719
174	64.36866287
175	64.25202005
176	64.14195419
177	64.03965826
178	63.94400129
179	63.8520414
180	63.76274657
181	63.67564588
182	63.5902057
183	63.50550416
184	63.41926346
185	63.33340293
186	63.24443819
187	63.15894935
188	63.08331564
189	63.01936086
190	62.96373274
191	62.90968369
192	62.85578543
193	62.8019962
194	62.74838468
195	62.695039
196	62.64167885
197	62.49752062
198	62.34502867
199	62.2309394
200	62.1248017
201	62.02935645
202	61.93887609
203	61.84208787
204	61.73705762
205	61.62379079
206	61.50510686
207	61.38432343
208	61.2636176
209	61.14891176
210	61.03862633
211	60.9409666
212	60.85715459
213	60.78720302
214	60.73075221
215	56.72349613
216	57.56668413
217	58.33465752
218	59.03317913
219	59.64555001
220	60.1748372
221	60.60594581
222	60.99503116
223	61.38624049
224	61.72562955
225	62.02404383
226	62.29313459
227	62.55983555
228	62.83378549
229	63.1075178
230	63.37631976
231	58.89556476
232	59.64601599
233	60.33962598
234	60.96086264
235	61.50786752
236	61.99200786
237	62.43386997
238	62.8490578
239	63.24540178
240	63.62047258
241	63.96735868
242	64.28456524
243	64.57304079
244	64.83106396
245	65.0636657
246	65.26823296
247	65.44825944
248	65.60539107
249	65.74122311
250	65.85837133
251	65.95563174
252	66.03436144
253	66.09908701
254	63.71416849
255	63.90118389
256	64.06939358
257	64.22007193
258	64.35068314
259	64.4697976
260	64.57423956
261	64.66528558
262	64.74441929
263	64.81322585
264	64.87301381
265	64.92500779
266	64.97022857
267	65.00951934
268	65.04376627
269	65.0735948
270	65.09716109
271	65.11848131
272	65.13519326
273	65.14736077
274	65.15524214
275	65.15961211
276	65.16158065
277	65.16181695
278	65.16037811
279	65.15691506
280	65.15165676
281	65.14492793
282	65.13600727
283	65.12723238
284	65.1177478
285	65.10776727
286	65.09746577
287	65.08696116
288	65.07768843
289	65.06795974
290	65.05888365
291	65.04941812
292	65.03807116
293	65.0235256
294	64.99999588
295	64.97637638
296	64.94573224
297	64.90659179
298	64.85771875
299	64.79837577
300	64.73048639
301	64.66089407
302	64.593005
303	64.52817742
304	64.46979218
305	64.4199422
306	64.38321361
307	64.34978166
308	64.32045259
309	64.29427775
310	64.27281147
311	64.25968984
312	64.2554731
313	64.26003165
314	64.27307619
315	64.27758039
316	64.28407081
317	64.29240601
318	64.30230481
319	64.31295266
320	64.32241919
321	64.32991407
322	64.33600865
323	64.34265616
324	64.3513827
325	64.3621675
326	64.37433983
327	64.38788481
328	64.40264405
329	64.41861678
330	64.4356549
331	64.45380074
332	64.47279715
333	64.49268568
334	64.51376177
335	64.53595708
336	64.55842157
337	64.57961571
338	64.59884514
339	64.61586172
340	64.630298
341	64.64192928
342	64.65062072
343	64.65519958
344	64.6574251
345	64.65619695
346	64.65151849
347	64.6434498
348	64.63195886
349	64.61712033
350	64.599177
351	64.57849121
352	64.55598671
353	64.53214424
354	64.50688301
355	64.47883822
356	64.44827886
357	64.41415726
358	64.37733308
359	64.33944892
360	64.30105341
361	64.26250437
362	64.2240251
363	64.18586709
364	64.14840756
365	64.1116612
366	64.07550661
367	64.03960862
368	64.00327213
369	63.96609548
370	63.92860136
371	63.8917114
372	63.85585282
373	63.82129381
374	63.78796608
375	63.7556727
376	63.72436863
377	63.69390198
378	63.66406581
379	63.62785167
380	63.59111584
381	63.55391746
382	63.51651812
383	63.48057329
384	63.44652821
385	63.41474565
386	63.38541324
387	63.35872205
388	63.3348269
389	63.31343855
390	63.29410383
391	63.27587076
392	63.25689403
393	63.23562209
394	63.21233582
395	63.1891444
396	63.16741058
397	63.14825708
398	63.1329742
399	63.12304804
400	63.11970145
401	63.1234868
402	63.13432802
403	63.15156473
404	63.1747561
405	63.20301634
406	63.23617427
407	63.27382666
408	63.31563589
409	63.36106581
410	63.40914538
411	63.45847183
412	63.50725357
413	63.55487902
414	63.60170012
415	63.64858644
416	63.69531239
417	63.74132658
418	63.78623318
419	63.82961779
420	63.87105877
421	63.91035524
422	63.94776812
423	63.98283886
424	64.01614254
425	64.04861513
426	64.08056005
427	64.11181917
428	64.14323496
429	64.17574535
430	64.20948193
431	64.24418703
432	64.28012118
433	64.31684374
434	64.35367693
435	64.39020139
436	64.4255142
437	64.45919448
438	64.49092766
439	64.52091628
440	64.5489418
441	64.57734028
442	64.60391637
443	64.62670324
444	64.64610196
445	64.66258141
446	64.67491159
447	64.68173959
448	64.68319157
449	64.6800395
450	64.67299531
451	64.66324525
452	64.6542881
453	64.64731037
454	64.64143255
455	64.63388392
456	64.62413581
457	64.61223521
458	64.5982512
459	64.58227475
460	64.56424317
461	64.54434549
462	64.52052742
463	64.4901073
464	64.44778185
465	64.40359661
466	64.35380906
467	64.29945523
468	64.24146948
469	64.18053537
470	64.11709227
471	64.05175073
472	63.98481136
473	63.91649073
474	63.83032762
475	63.74581754
476	63.66511914
477	63.59032347
478	63.52204795
479	63.46224993
480	63.41547072
481	63.38261757
482	63.36081556
483	63.34326423
484	63.3234411
485	63.2990981
486	63.28011093
487	63.27988079
488	63.30164212
489	63.34425702
490	63.4049178
491	63.48154649
492	63.52331448
493	63.62574902
494	63.67751448
495	63.79182277
496	61.57155353
497	60.93893994
498	60.48428164
499	60.1117237
500	59.77919254
501	58.74410638
502	58.6467812
503	58.55776996
504	58.47632282
505	58.40172531
506	58.33332944
507	59.26740757
508	60.09989894
509	60.84439849
510	61.51269565
511	62.1128346
512	62.65503273
513	63.1340979
514	63.58207028
515	63.99154527
516	64.36270881
517	64.70216615
518	65.01309958
519	65.29935033
520	65.56203903
521	65.80203399
522	66.01980239
523	66.21894119
524	66.39486299
525	66.54082702
526	66.67261124
527	66.78273001
528	66.87408042
529	66.94917597
530	67.00851367
531	67.05215941
532	67.08091456
533	67.09534969
534	67.09636151
535	67.08384581
536	67.05892683
537	67.01778034
538	66.97038435
539	66.91639922
540	66.86427683
541	66.80550504
542	66.72759283
543	66.63563813
544	66.54052108
545	66.44324158
546	66.34380929
547	66.242711
548	66.14031392
549	66.03511874
550	65.93095136
551	65.82666811
552	65.72319302
553	65.62154067
554	65.52209215
555	65.42355675
556	65.32568784
557	65.22848619
558	65.13146362
559	65.03443442
560	64.93663329
561	64.83558983
562	64.73414504
563	64.63103719
564	64.5272721
565	64.42347696
566	64.32002805
567	64.21791085
568	64.11803452
569	64.02086725
570	63.92644521
571	63.83391444
572	63.74162301
573	63.64921174
574	63.55749247
575	63.46816444
576	63.3818724
577	63.29944131
578	63.22213548
579	63.1514016
580	63.08754086
581	63.03059864
582	62.98055554
583	62.93721943
584	62.90027447
585	62.86934784
586	62.84456892
587	62.82445849
588	62.80916177
589	62.79763411
590	62.78813106
591	62.77871934
592	62.76888896
593	62.75841232
594	62.74711447
595	62.73486114
596	62.72154595
597	62.70709619
598	62.69181481
599	62.67493892
600	62.65606482
601	62.63486835
602	62.61165034
603	62.58708281
604	62.56159525
605	62.52655881
606	62.49041027
607	62.45391216
608	62.42720219
609	62.40204544
610	62.38012516
611	62.35888948
612	62.34096398
613	62.32731905
614	62.26791838
615	62.1896838
616	62.10183377
617	62.00813832
618	61.91260386
619	61.81452761
620	61.71463937
621	61.64685174
622	57.44668394
623	57.22983957
624	57.03843531
625	56.86880652
626	56.71823009
627	56.58440163
628	56.47733836
629	57.20444763
630	57.85041693
631	58.4232221
632	58.92885442
633	59.38313128
634	59.78502707
635	60.16441941
636	58.87514784
637	59.29191672
638	59.67535073
639	60.38566239
640	60.96991304
641	61.45171284
642	61.84985011
643	62.17401217
644	62.42073768
645	62.6919404
646	62.91930243
647	63.06494781
648	63.19980762
649	63.32503451
650	63.44197575
651	63.54971597
652	63.64862927
653	63.74024279
654	63.82468943
655	63.90232022
656	63.97453057
657	64.04147844
658	64.10151854
659	64.15938948
660	64.21292667
661	64.26208688
662	64.30817719
663	64.35172508
664	64.39367491
665	64.43470262
666	64.47461579
667	64.51279183
668	64.54896679
669	64.5826278
670	64.61342756
671	64.64055766
672	64.66365144
673	64.68228111
674	64.69727217
675	64.7101771
676	64.72224368
677	64.73381779
678	64.74445724
679	64.75327018
680	64.76004381
681	64.76442898
682	64.76584862
683	64.76300488
684	64.75797605
685	64.74943103
686	64.73770761
687	64.73031965
688	64.71694172
689	64.69733327
690	64.67210897
691	64.64156419
692	64.60529961
693	64.56369078
694	64.51676582
695	64.4632562
696	64.40629854
697	64.34376301
698	64.27733255
699	64.20967984
700	64.14181076
701	64.07458614
702	64.0092281
703	63.94803533
704	63.89298289
705	63.84518175
706	63.80736718
707	63.7895865
708	63.77861268
709	63.77546647
710	63.78225203
711	63.80132017
712	63.83216449
713	63.8617169
714	63.89990517
715	63.94789026
716	64.02783892
717	64.12032215
718	64.2197434
719	64.29233292
720	61.23216687
721	58.8180387
722	57.87832917
723	57.09469238
724	56.63161168
725	56.31522901
726	56.11793858
727	55.95900479
728	55.81753528
729	55.69145764
730	55.57352827
731	55.34090176
732	55.30199841
733	55.26564334
734	55.23149362
735	55.19926293
736	55.16868433
737	55.13952878
738	55.11155973
739	55.08458533
740	55.05844425
741	55.03305277
742	55.00827527
743	54.9481814
744	54.93674716
745	54.92387302
746	54.90974969
747	54.89454308
748	54.87840277
749	54.86144947
750	55.76526955
751	56.49403826
752	57.22805218
753	57.88325576
754	58.46778347
755	58.98913123
756	58.08663652
757	58.62606202
758	59.10956563
759	58.05420533
760	58.57377516
761	59.03982264
762	59.45782226
763	59.83369998
764	60.17177195
765	58.71485149
766	59.13900963
767	59.52281803
768	59.86123904
769	60.17645812
770	60.46181567
771	60.7206345
772	60.9555587
773	61.16914627
774	61.36356682
775	61.54056088
776	61.7008428
777	61.8456428
778	61.97705522
779	62.097717
780	62.20571301
781	62.30977
782	62.40656995
783	62.4963216
784	62.57934318
785	62.65659524
786	62.72815845
787	62.79448313
788	62.85635016
789	62.9138741
790	62.96853581
791	63.01814942
792	63.05820622
793	63.09900376
794	63.13563666
795	63.1670634
796	63.19110928
797	63.20727169
798	63.21644189
799	63.22013833
800	63.2198586
801	63.21661756
802	63.05709224
803	63.04533906
804	63.02286522
805	63.00176429
806	62.98095582
807	62.96169352
808	62.94641098
809	62.93715749
810	62.93523058
811	62.94089425
812	62.95724576
813	62.98453727
814	63.01907996
815	63.0556952
816	56.82166891
817	56.2963065
818	55.95672178
819	55.65545466
820	55.40454809
821	55.2258686
822	55.06554075
823	54.94656998
824	54.84290902
825	54.76358061
826	54.6902327
827	54.62234797
828	55.12192598
829	55.78672386
830	56.39056366
831	56.94569062
832	56.24041293
833	56.7979223
834	56.08055773
835	56.64196721
836	55.91967008
837	56.48576465
838	57.01139326
839	56.19227197
840	56.7309228
841	55.95323094
842	56.50123492
843	57.01219407
844	56.14970148
845	56.6791954
846	57.17363122
847	56.26557601
848	56.78204644
849	57.26457692
850	58.25962873
851	59.13744826
852	59.9682453
853	60.69103937
854	61.34694225
855	61.92930559
856	62.43451063
857	62.8573643
858	63.20629934
859	63.49118775
860	63.71866874
861	63.89588123
862	64.03160867
863	64.13378225
864	64.20921673
865	64.25753461
866	64.29663828
867	64.32339085
868	64.34103653
869	64.35213431
870	64.35858723
871	64.34500146
872	64.33080645
873	64.31560172
874	64.29960552
875	64.28329324
876	64.26690889
877	64.2498078
878	64.23369383
879	64.21803425
880	64.20313456
881	64.18888812
882	64.17483836
883	64.16005767
884	64.14426932
885	64.12751954
886	64.11043954
887	64.09343289
888	64.07740696
889	64.06246257
890	64.04674449
891	64.02906418
892	64.00773131
893	63.97722685
894	63.94061614
895	63.89928575
896	63.85497248
897	63.80929618
898	63.76365482
899	63.71967685
900	63.68062069
901	63.64634924
902	63.61792879
903	63.59008363
904	63.56135825
905	63.53109184
906	63.50414062
907	63.4795863
908	60.52166009
909	58.15428751
910	57.13240862
911	56.3720374
912	55.8229022
913	55.01936033
914	54.90194927
915	54.8154051
916	54.73791971
917	54.66728701
918	54.61258452
919	54.56303119
920	54.51739234
921	54.4799716
922	55.69942198
923	56.80025374
924	57.86002031
925	58.8102147
926	59.56238846
927	60.19686808
928	60.76921493
929	61.28697098
930	61.75618382
931	62.18139483
932	62.56655556
933	62.91566882
934	63.23268412
935	63.52127053
936	63.78402879
937	64.0231211
938	64.23397454
939	64.42740758
940	64.59853027
941	64.7489753
942	64.88085547
943	64.99607414
944	65.09648435
945	65.18355352
946	65.25760667
947	65.31925626
948	65.36981768
949	65.41026019
950	65.43989577
951	65.46350561
952	65.48000188
953	65.48998226
954	65.4938507
955	65.49119459
956	65.48228612
957	65.4673486
958	65.4465939
959	65.42013697
960	65.38766986
961	65.34928124
962	65.30412265
963	65.25641816
964	65.20531874
965	65.15147106
966	65.09551672
967	65.0381537
968	64.98058387
969	64.92314984
970	64.86532805
971	64.80586936
972	64.74356669
973	64.6780937
974	64.60876045
975	64.53916503
976	64.46841979
977	64.39670224
978	64.32426025
979	64.25140174
980	64.17848339
981	64.10566028
982	64.0328706
983	63.95982821
984	63.68221439
985	63.39876318
986	63.09205009
987	62.80574852
988	62.52050556
989	62.23893137
990	61.96267476
991	61.69422927
992	61.52858271
993	61.40294722
994	61.30864881
995	61.24274592
996	61.20369084
997	61.18881607
998	61.21687581
999	61.24816517
1000	61.30677811
1001	61.39020434
1002	61.49750215
1003	61.62403742
1004	61.79036114
1005	56.27017019
1006	57.12288007
1007	56.22046526
1008	55.91709489
1009	55.64772009
1010	55.40834482
1011	55.22301144
1012	55.07974437
1013	54.95076003
1014	54.83415816
1015	54.74891412
1016	54.67085707
1017	54.59888292
1018	55.84680691
1019	56.90307931
1020	57.82547086
1021	58.63827583
1022	59.3603996
1023	59.99360233
1024	60.57946952
1025	61.10869905
1026	61.58775221
1027	62.02199651
1028	62.41564559
1029	62.77305719
1030	63.09872599
1031	63.39662712
1032	63.66947145
1033	63.91965397
1034	64.14713722
1035	64.34304648
1036	64.52548805
1037	64.68803879
1038	64.83287055
1039	64.9619439
1040	65.07731143
1041	65.1806653
1042	65.27333844
1043	65.35649178
1044	65.43155091
1045	65.49923358
1046	65.55640718
1047	65.60128548
1048	65.63736345
1049	65.66296222
1050	65.67951615
1051	65.6893226
1052	65.6935248
1053	65.69261497
1054	65.68721401
1055	65.67798359
1056	65.66564498
1057	65.65052649
1058	65.63270274
1059	65.61169058
1060	65.58840829
1061	65.56291213
1062	65.53557816
1063	65.50676578
1064	65.47675686
1065	65.44571861
1066	65.41367431
1067	65.38018588
1068	65.34370357
1069	65.30360773
1070	65.26080843
1071	65.215475
1072	65.17197201
1073	65.1292245
1074	65.0871513
1075	65.04582427
1076	65.00572142
1077	64.96652121
1078	64.92913185
1079	64.89075822
1080	64.85127299
1081	64.81150234
1082	64.77139108
1083	64.72941859
1084	64.68732904
1085	64.64515891
1086	64.60253387
1087	64.55996515
1088	64.52011634
1089	64.4832119
1090	64.45295437
1091	64.42419739
1092	64.39214577
1093	64.35668381
1094	64.3186959
1095	64.27909259
1096	64.23958325
1097	64.20202
1098	64.16758091
1099	64.13466324
1100	64.10261429
1101	64.07129177
1102	64.03995279
1103	64.00753404
1104	63.97332995
1105	63.93715792
1106	63.89917438
1107	63.85994304
1108	63.81954571
1109	63.7784356
1110	63.73663403
1111	63.6947198
1112	63.65477127
1113	63.61772393
1114	63.58331738
1115	63.54954196
1116	63.51537129
1117	63.48032208
1118	63.44466191
1119	63.40731703
1120	63.36726265
1121	63.32544036
1122	63.28266848
1123	63.24048765
1124	63.19927035
1125	63.15916917
1126	63.12032578
1127	63.0828255
1128	63.04677551
1129	63.01231067
1130	62.97945819
1131	62.94802447
1132	62.91742592
1133	62.88594678
1134	62.85477571
1135	62.82555436
1136	62.79952876
1137	62.77710666
1138	62.75798758
1139	62.74108047
1140	62.72543248
1141	62.71079129
1142	62.69747367
1143	62.68657552
1144	62.68067826
1145	62.67824865
1146	62.67942219
1147	62.68224326
1148	62.68517582
1149	62.68775549
1150	62.69050166
1151	62.69476804
1152	62.70159643
1153	62.71114206
1154	62.72274735
1155	62.73519528
1156	62.74876934
1157	62.7615362
1158	62.77401117
1159	62.78585539
1160	62.79663552
1161	62.80636616
1162	62.81555601
1163	62.82501732
1164	62.83487365
1165	62.84503432
1166	62.85541282
1167	62.86576823
1168	62.87619601
1169	62.8857908
1170	62.89466355
1171	62.90283019
1172	62.91118883
1173	62.92015949
1174	62.92962978
1175	62.93893244
1176	62.94788199
1177	62.95634326
1178	62.96399105
1179	62.97035787
1180	62.97471111
1181	62.97666694
1182	62.97659137
1183	62.97507274
1184	62.97249112
1185	62.96916173
1186	62.96524469
1187	62.96104394
1188	62.95728709
1189	62.95488786
1190	62.95459057
1191	62.95717219
1192	62.96352686
1193	62.97435303
1194	62.98931226
1195	63.00757836
1196	63.02875996
1197	63.05221155
1198	63.07671463
1199	63.10087648
1200	63.124114
1201	63.14596837
1202	63.1659932
1203	63.1838278
1204	63.19887106
1205	63.20960544
1206	63.21814049
1207	63.22308973
1208	63.22250917
1209	63.21610132
1210	63.20564986
1211	63.19434483
1212	63.18320829
1213	63.17239844
1214	63.16170105
1215	63.15066817
1216	63.13928941
1217	63.12679665
1218	63.11486428
1219	63.10229267
1220	63.08796553
1221	63.07149904
1222	63.05342041
1223	63.03504804
1224	63.01757348
1225	63.00140903
1226	62.98617308
1227	62.97085072
1228	62.95459284
1229	62.93734695
1230	62.91978967
1231	62.90327567
1232	62.88806123
1233	62.87421166
1234	62.86134394
1235	62.84934343
1236	62.83860019
1237	62.82891036
1238	62.82032576
1239	62.81299858
1240	62.80726952
1241	62.80467575
1242	62.80236944
